"pressure","temperature"
5.0e7,900.0
1.0219865073473842e8,1095.1690714238077
1.54901329845016e8,1194.8805018585674
2.0798748080714e8,1275.9014346456615
2.6139444534075877e8,1336.3344094186227
3.150854656701637e8,1385.8094261306424
3.6903339083845615e8,1427.6991145053923
4.232181194369824e8,1464.1030042659297
4.776240712866672e8,1496.3902201149026
5.3223864116532624e8,1525.4514819685385
5.870514718292288e8,1551.9174086015319
6.420537428250358e8,1576.2293152989175
6.972378444126947e8,1598.7168001614348
7.525971352447263e8,1619.630489764887
8.08125754613122e8,1639.1646250725125
8.638184778152815e8,1657.4728341638086
9.196706430889399e8,1674.6849985663246
9.756780000613594e8,1690.9072103508067
1.0318366697024311e9,1706.2518585570851
1.088143143107349e9,1720.8518657266388
1.1445942142288756e9,1734.7853357739925
1.2011868865833116e9,1748.1051475700904
1.2579184642611852e9,1760.8649371748222
1.3147863899419227e9,1773.107268215849
1.3717883357755868e9,1784.8746334918774
1.4289220975775442e9,1796.2025130452428
1.486185655452407e9,1807.1272517081964
1.5435770833668754e9,1817.6747213903056
1.601094617467683e9,1827.878984059589
1.6587365507876742e9,1837.7550099605623
1.7165013286053734e9,1847.3370621993936
1.7743874502905245e9,1856.6352149752593
1.832393493792541e9,1865.6732677431864
1.8905181389736884e9,1874.4715600119016
1.9487601022419662e9,1883.0359623286918
2.0071181961656423e9,1891.390681231468
2.065591283252321e9,1899.5443961460362
2.124178249077926e9,1907.5037776441472
2.182878072330608e9,1915.2894161319343
2.2416897674951105e9,1922.9062633224296
2.300612363822176e9,1930.3585235934397
2.3596449648009157e9,1937.6632864726282
2.4187867096558433e9,1944.8259926336686
2.478036753520667e9,1951.847536302738
2.537394283788277e9,1958.7394658576352
2.5968585469787717e9,1965.5113279343846
2.656428808705334e9,1972.1633392261235
2.716104331870859e9,1978.6984491384092
2.7758844410867596e9,1985.128356887516
2.8357684870803137e9,1991.4564243904897
2.8957558318470163e9,1997.682817104472
2.9558458361617904e9,2003.8107506127985
3.016037916450714e9,2009.8497033356591
3.07633150980634e9,2015.8018731647826
3.136726061454176e9,2021.667363944343
3.197221014551017e9,2027.4476592755993
3.257815851434326e9,2033.1502591145197
3.318510080897197e9,2038.778539432976
3.3793032218915e9,2044.332572677264
3.440194791196105e9,2049.812437644805
3.5011843977739115e9,2055.2156977961167
3.5622719104664927e9,2060.5466496190106
3.623456888306251e9,2065.820516423634
3.6847386481695232e9,2071.037477691025
3.746116676488855e9,2076.190666908476
3.8075908383317275e9,2081.2651052800147
3.86916210828659e9,2086.239032715771
3.9308318835293584e9,2091.10712023782
3.992601640320567e9,2095.8655188993093
4.054472873872302e9,2100.5103470377894
4.1164470440889215e9,2105.0558724256275
4.1785244530377474e9,2109.554619608933
4.240704944614057e9,2114.0186175401145
4.302988158498771e9,2118.4479053447317
4.3653737338021555e9,2122.8425243271254
4.42786130907624e9,2127.202517927798
4.490450532931131e9,2131.5299261453097
4.553141095437354e9,2135.8274658242663
4.615932701515235e9,2140.095390374607
4.678825057302658e9,2144.333807590329
4.741817867446315e9,2148.542801266761
4.804910835561502e9,2152.7223885138037
4.868103675702371e9,2156.8629698139407
4.931396177716066e9,2160.9458448362407
4.994788158352405e9,2164.967928391137
5.058279440474509e9,2168.929156884655
5.121869843826764e9,2172.829474764795
5.185559185083024e9,2176.6688343873925
5.249347277778109e9,2180.4494343374354
5.31323395755435e9,2184.208466536453
5.377219104999093e9,2187.976500946945
5.441302617893451e9,2191.7535530199343
5.505484394460368e9,2195.539638176807
5.569764333366463e9,2199.3347718089612
5.634142333724011e9,2203.1389692774683
5.698618295092877e9,2206.9522459127165
5.76319207916535e9,2210.7580870873417
5.827863435114997e9,2214.5392034680744
5.892632071096811e9,2218.2953850574377
5.957497692846111e9,2222.0267499983947
6.022460005187379e9,2225.733352614955
6.087518712201234e9,2229.4152237586454
6.152673517379784e9,2233.072395245903
6.217924123633511e9,2236.7052904628326
6.283270261864913e9,2240.316126336919
6.3487116840596695e9,2243.905934630271
6.414248150668054e9,2247.4747286324487
6.479879421413524e9,2251.0225224355645
6.545605255297711e9,2254.5493309230983
6.611425410575626e9,2258.0551949714154
6.677339644171574e9,2261.5402061507843
6.743347712067808e9,2265.0045041263916
6.809449385295798e9,2268.449743986782
6.875644461674292e9,2271.8772515044866
6.941932748520745e9,2275.2870288591234
7.0083140523835745e9,2278.679078857516
7.074788179045338e9,2282.053404926739
7.141354933525987e9,2285.410011107194
7.208014120086097e9,2288.74890204571
7.274765542230052e9,2292.0700829886628
7.341609002709223e9,2295.373799766854
7.408544324632022e9,2298.6616424394574
7.475571349210457e9,2301.9345034434864
7.542689924584679e9,2305.192387822425
7.609899898064736e9,2308.4352911985147
7.677201116195633e9,2311.66320967315
7.744593424759116e9,2314.876139822654
7.812076668775388e9,2318.0740786940496
7.879650692504893e9,2321.2570238008475
7.947315339450086e9,2324.4249731188324
8.015070456172735e9,2327.575181030949
8.082915906995876e9,2330.7033431631035
8.150851562168227e9,2333.808930969974
8.218877292382899e9,2336.891934411714
8.286992967055683e9,2339.9523823227883
8.3551984539946785e9,2342.990315448563
8.423493619702208e9,2346.0057293557134
8.491878329527269e9,2348.998616693566
8.5603524476953e9,2351.9689710650755
8.628915837313183e9,2354.916787016921
8.697568362439995e9,2357.8449395399202
8.766309910752419e9,2360.7606590464557
8.835140378746658e9,2363.6653896390208
8.904059665985779e9,2366.5591240909657
8.973067671341644e9,2369.441855449201
9.042164292995007e9,2372.3135770324625
9.111349428435534e9,2375.174282429573
9.180622974461943e9,2378.023965497704
9.249984827136856e9,2380.8626420352057
9.319434881422201e9,2383.690354638001
9.388973031433636e9,2386.507106413699
9.45859917588575e9,2389.3085894243372
9.528313248524244e9,2392.0865651099666
9.598115195689789e9,2394.839699286579
9.668004966694214e9,2397.567964130446
9.737982509615355e9,2400.2713329181774
9.808047771301638e9,2402.9497800171475
9.878200697376501e9,2405.603280875851
9.948441232243057e9,2408.231812014223
1.0018769319088703e10,2410.8353510139054
1.0089184899889816e10,2413.41387650847
1.0159687915416431e10,2415.967368173601
1.0230278305237017e10,2418.4959770942087
1.0300956017796724e10,2421.0090325752367
1.0371721025080778e10,2423.515382537433
1.0442573307024632e10,2426.015052671361
1.0513512842954643e10,2428.5080367589603
1.0584539611682507e10,2430.9943250880056
1.0655653591526472e10,2433.4739080593044
1.072685476031007e10,2435.946776186393
1.079814309536078e10,2438.412920095229
1.0869518573508781e10,2440.872330523881
1.094098117108558e10,2443.324998322213
1.1012530863922745e10,2445.7709144515707
1.108416762735056e10,2448.210069984461
1.115589143631785e10,2450.6426455598253
1.122770228384971e10,2453.0693584560486
1.1299600169944761e10,2455.4903776275205
1.1371585097835228e10,2457.9056931928744
1.1443657070340702e10,2460.3152953558083
1.1515816089866713e10,2462.7191744049346
1.1588062158403227e10,2465.117324557931
1.1660395277339466e10,2467.5097690073453
1.1732815447425512e10,2469.8965193638087
1.180532266890625e10,2472.277566024845
1.1877916941605991e10,2474.652899470406
1.1950598264927046e10,2477.022510262731
1.2023366637848177e10,2479.3863890462053
1.2096222058923136e10,2481.7446574127293
1.2169164519149725e10,2484.0991697501786
1.2242193997187073e10,2486.4513909135876
1.2315310466854372e10,2488.801316987832
1.2388513901604116e10,2491.148944078631
1.246180427452087e10,2493.4942683125164
1.253518155831988e10,2495.837285836795
1.2608645725345842e10,2498.17799281952
1.2682196747571585e10,2500.516385449455
1.2755834596596788e10,2502.852459936043
1.2829559243646624e10,2505.1862125093708
1.2903370659570461e10,2507.5176394201358
1.2977268814834995e10,2509.846746935494
1.3051253679234447e10,2512.1735667565813
1.3125325222065615e10,2514.498103637958
1.319948341508385e10,2516.819246520624
1.3273728244083025e10,2519.135231579
1.3348059699861063e10,2521.445833947214
1.3422477774043896e10,2523.7510455349534
1.3496982457812956e10,2526.05085832371
1.3571573741903616e10,2528.345264366648
1.3646251616603535e10,2530.6342557884695
1.3721016071751085e10,2532.917824785283
1.3795867096733725e10,2535.195963624462
1.3870804680486444e10,2537.4686646445134
1.3945828811490042e10,2539.7359202549355
1.4020939477769573e10,2541.9977229360775
1.4096136666892681e10,2544.254065239
1.4171420365968004e10,2546.5049397853304
1.4246790561643475e10,2548.7503392671206
1.4322247240104696e10,2550.990404664597
1.4397790404161861e10,2553.2257363992417
1.447342006342198e10,2555.4565118327923
1.4549136230428993e10,2557.6827487148253
1.4624938917265894e10,2559.904440183006
1.4700828135640146e10,2562.121578306018
1.4776803896889502e10,2564.3341552038996
1.4852866211980371e10,2566.5421630480014
1.492901509150613e10,2568.7455940609325
1.5005250545685472e10,2570.944440516517
1.5081572584360672e10,2573.138694739737
1.5157981216995905e10,2575.328349106686
1.5234476452675575e10,2577.5133960445132
1.5311058300102581e10,2579.6938280313734
1.5387726767596577e10,2581.8696375963677
1.5464481863092281e10,2584.040817319491
1.554132359413772e10,2586.2068146495576
1.56182519752119e10,2588.361431400896
1.569526703106926e10,2590.5000955652213
1.5772368789906397e10,2592.6227836116855
1.584955727921693e10,2594.729472366413
1.5926832525791103e10,2596.8201390105587
1.6004194555715422e10,2598.89476107835
1.6081643394295807e10,2600.9533369004635
1.6159179065912058e10,2602.995865623188
1.6236801594164371e10,2605.0223253988706
1.6314511001952852e10,2607.032694428153
1.639230731147922e10,2609.026951254651
1.6470190544246574e10,2611.00507476305
1.6548160721059074e10,2612.967044177177
1.6626217862021708e10,2614.912839058068
1.6704361986540129e10,2616.8424393020264
1.6782593113320328e10,2618.7558251386604
1.6860911260368511e10,2620.652977128926
1.6939316445949587e10,2622.5378999746576
1.7017808694145874e10,2624.4182525033834
1.70963880311063e10,2626.2952445534092
1.7175054483415295e10,2628.168870868128
1.725380807735721e10,2630.039126216283
1.7332648838914677e10,2631.9060053919547
1.741157679376689e10,2633.7695032145457
1.7490591967287888e10,2635.6296145287643
1.7569694384544846e10,2637.4863342046106
1.7648884070296394e10,2639.3396571373614
1.772816104899084e10,2641.1895782475517
1.7807525344764435e10,2643.0360924809606
1.7886976981439632e10,2644.8791948085927
1.796651598248859e10,2646.718891956119
1.8046142370876575e10,2648.555198626105
1.812585616917812e10,2650.3881124190125
1.8205657399628372e10,2652.2176282860028
1.8285546084139744e10,2654.043741202798
1.836552224430013e10,2655.8664759212666
1.8445585909496017e10,2657.6861613024894
1.8525737120754566e10,2659.503036822117
1.8605975923392212e10,2661.3170973957567
1.8686302362505825e10,2663.128337955948
1.8766716482971146e10,2664.9367534521634
1.8847218329441257e10,2666.7423388508105
1.8927807946344925e10,2668.5450891352357
1.900848537788505e10,2670.3449993057234
1.9089250668037106e10,2672.1420643795013
1.9170103860547455e10,2673.9362793907385
1.9251044998931778e10,2675.72763939055
1.9332074126473415e10,2677.5161394469933
1.9413191286221775e10,2679.301774645074
1.9494396520990623e10,2681.0845400867433
1.957568987335644e10,2682.8644308908993
1.9657071385656784e10,2684.6414421933873
1.973854109998857e10,2686.415569147
1.9820099058206383e10,2688.186806921477
1.9901745301920776e10,2689.9551507035035
1.998347987249655e10,2691.72066310761
2.0065302823187504e10,2693.4836811086852
2.0147214214580013e10,2695.2443533077144
2.0229214110422485e10,2697.002679596761
2.03113025742943e10,2698.7586552101984
2.03934796696378e10,2700.5122753930027
2.0475745459756912e10,2702.26353540076
2.0558100007815807e10,2704.012430499675
2.0640543376837532e10,2705.758955966578
2.0723075629702557e10,2707.503107088932
2.080569682914742e10,2709.244879164841
2.0888407037763268e10,2710.984267503054
2.0971206317994495e10,2712.7212674229736
2.105409473213723e10,2714.4558742546633
2.1137072342337963e10,2716.188083338854
2.122013921059201e10,2717.917890026949
2.1303295398742134e10,2719.6452896810306
2.1386540968476994e10,2721.3702776738664
2.146987598132967e10,2723.092849388917
2.1553300498676212e10,2724.8130002203384
2.1636814581734055e10,2726.530725572991
2.1720418291560543e10,2728.246076956596
2.180411170018473e10,2729.9593432208526
2.18878948871973e10,2731.670644929804
2.197176793543236e10,2733.3799777167687
2.2055730927679882e10,2735.087337221374
2.213978394668458e10,2736.79271908956
2.2223927075144913e10,2738.496118973587
2.230816039571194e10,2740.1975325320395
2.239248399095364e10,2741.896965767998
2.247689794321613e10,2743.5944306951933
2.2561402334729675e10,2745.2899249669035
2.264599724765711e10,2746.983444234694
2.2730682764107708e10,2748.674984156103
2.281545896613613e10,2750.3645403946493
2.290032593574122e10,2752.052108619839
2.2985283754864872e10,2753.7376845071694
2.307033250539087e10,2755.4212637381365
2.3155472269143757e10,2757.1028420002394
2.324070312788759e10,2758.782414986988
2.3326025163324783e10,2760.459978397904
2.341143845709489e10,2762.1355279385302
2.3496943090773453e10,2763.809059320437
2.3582539145870674e10,2765.480571966583
2.3668226708701683e10,2767.150276388389
2.3754005877519276e10,2768.8183721537425
2.3839876754931713e10,2770.484855296088
2.3925839443603638e10,2772.149721851727
2.401189404625546e10,2773.8129678598216
2.409804066566274e10,2775.4745893623963
2.4184279404655464e10,2777.134582404341
2.4270610366117485e10,2778.792943033415
2.4357033652985733e10,2780.4496673002477
2.4443549368249657e10,2782.104751258342
2.453015761495045e10,2783.758190964075
2.46168584961804e10,2785.409982476704
2.4703652115082165e10,2787.060121858365
2.479053857484812e10,2788.7086051740775
2.4877517978714024e10,2790.355433772413
2.49645904297901e10,2792.000621039851
2.5051756031164738e10,2793.644167038076
2.5139014885940598e10,2795.286067813783
2.522636709726548e10,2796.9263194162295
2.5313812768331528e10,2798.5649178972367
2.5401352002374546e10,2800.201859311193
2.5488984902673103e10,2801.8371397150536
2.557671157254781e10,2803.470755168345
2.566453211536048e10,2805.1020752048607
2.5752446645721012e10,2806.7277241763445
2.5840455286306423e10,2808.346199938206
2.5928558163244766e10,2809.9574880196437
2.601675540267572e10,2811.561573985565
2.610504713075001e10,2813.1584434364618
2.6193433473628666e10,2814.7480820082824
2.6281914557482407e10,2816.3304753723023
2.637049050849096e10,2817.9056092349942
2.6459161452842426e10,2819.473469337897
2.6547927516732536e10,2821.034041457483
2.663678882636401e10,2822.5873114050223
2.672574550794593e10,2824.13326502645
2.6814797687692932e10,2825.671888202227
2.6903945491824596e10,2827.2031668472036
2.6993189046564716e10,2828.7270869104805
2.7082528478140636e10,2830.243634375268
2.7171963912782494e10,2831.752795258744
2.7261495476722523e10,2833.2545556119126
2.735112329619434e10,2834.748901519459
2.7440847497432236e10,2836.2358190996065
2.7530668206670437e10,2837.715294503968
2.7620585550142345e10,2839.1873139174
2.7710599654128456e10,2840.653785795894
2.7800710645078636e10,2842.116920529389
2.7890918649559704e10,2843.577569329183
2.798122380574713e10,2845.0391991317842
2.807162626316637e10,2846.5034370081175
2.8162126176140617e10,2847.9699716677223
2.8252723699335106e10,2849.4384889713824
2.8343418987755013e10,2850.908672049198
2.8434212196743332e10,2852.3802014216794
2.8525103481978676e10,2853.8527551238194
2.8616092999473137e10,2855.326008832084
2.870718090557003e10,2856.799635994284
2.8798367356941692e10,2858.2733079622644
2.8889652510587135e10,2859.746694127353
2.8981036523829784e10,2861.2194620585033
2.9072519554315113e10,2862.691277643072
2.916410176000836e10,2864.1618052301487
2.9255783299192043e10,2865.63070777637
2.9347564330463604e10,2867.0976469941374
2.9439445012733013e10,2868.5622835021536
2.953142550522027e10,2870.024276978196
2.9623505967452953e10,2871.4832863140273
2.971568655926375e10,2872.93896977236
2.9807967440787968e10,2874.390985145766
2.990034877246096e10,2875.838989917436
2.999283071501569e10,2877.282641423678
3.008541342948009e10,2878.7215970180537
3.0178097077174618e10,2880.1555142370266
3.027088181970959e10,2881.584050967019
3.036376782091867e10,2883.0085794454976
3.045675525672984e10,2884.432003079075
3.054984430800667e10,2885.8547640834813
3.06430351573906e10,2887.2768604053426
3.073632798804145e10,2888.6982899896125
3.0829722983639538e10,2890.1190518712315
3.0923220328308456e10,2891.5391550941918
3.1016820206586815e10,2892.958605421427
3.1110522803497204e10,2894.3774007832985
3.120432830458978e10,2895.795539108295
3.129823689594433e10,2897.213018323023
3.1392248764172394e10,2898.6298363521987
3.1486364096419384e10,2900.045991118638
3.1580583080366722e10,2901.461480543249
3.1674905904233925e10,2902.876302545022
3.1769332756780823e10,2904.2904550410212
3.1863863827309643e10,2905.703935946374
3.195849930566724e10,2907.1167431742624
3.2053239382247215e10,2908.5288746359156
3.2148084247992138e10,2909.940328240598
3.2243034094395756e10,2911.351101895599
3.233808911350516e10,2912.7611935062278
3.243324949792304e10,2914.1706009757977
3.252851544080987e10,2915.579322205621
3.262388713588626e10,2916.987355094997
3.2719364777435055e10,2918.394697541203
3.281494856030369e10,2919.8013474394825
3.291063867990644e10,2921.2073026830376
3.3006435331030422e10,2922.617532895818
3.310233870230904e10,2924.040662617528
3.319834898063668e10,2925.477932895955
3.329446635312992e10,2926.9293727237996
3.3390691007843533e10,2928.39501126886
3.3487023133781e10,2929.874877875206
3.3583462920905125e10,2931.3690020643658
3.368001056014891e10,2932.877413536519
3.3776666243426353e10,2934.400142171693
3.387343016364351e10,2935.9372180309692
3.3970302514709614e10,2937.488671357697
3.406728349154842e10,2939.054532578711
3.4164373290109486e10,2940.6348323055618
3.426157210737983e10,2942.229605263836
3.4358880141203873e10,2943.83889865415
3.445629759039945e10,2945.4627484201987
3.4553824654807526e10,2947.1011865088985
3.4651461535343e10,2948.754245064676
3.474920843400666e10,2950.421956430801
3.484706555389748e10,2952.1043531507257
3.4945033099224785e10,2953.8014679694315
3.504311127532079e10,2955.513333834785
3.514130028865324e10,2957.2399838989077
3.5239600346838e10,2958.981451519549
3.533801165865212e10,2960.7377702614713
3.543653443404679e10,2962.508973897846
3.553516888416053e10,2964.2950964116562
3.56339152213326e10,2966.096171997113
3.573277365911646e10,2967.9122350610783
3.583174441229346e10,2969.7417662208927
3.593082768476724e10,2971.5751558516345
3.603002367069261e10,2973.4074343167354
3.612933256042429e10,2975.238597624596
3.6228754544751274e10,2977.068641781414
3.632828981489767e10,2978.897562791178
3.642793856252366e10,2980.725356655654
3.652770097972641e10,2982.552019374373
3.662757725904094e10,2984.377546944622
3.672756759344104e10,2986.2019353614314
3.682767217634016e10,2988.025180617566
3.692789120159231e10,2989.84727870351
3.702822486349293e10,2991.668225607455
3.71286733567798e10,2993.4880173152933
3.722923687658943e10,2995.30665982088
3.73299156182484e10,2997.12416644545
3.7430709777430374e10,2998.9405356105094
3.753161955022683e10,3000.7557632913285
3.763264513317363e10,3002.5698454605117
3.773378672325192e10,3004.3827780879806
3.7835044517888954e10,3006.194557140963
3.793641871495883e10,3008.0051785839764
3.803790951278344e10,3009.814638378817
3.813951711013316e10,3011.622932484543
3.824124170622779e10,3013.4300568574613
3.8343083500737206e10,3015.236007451113
3.8445042693782265e10,3017.0407802162586
3.8547119485935524e10,3018.8443711008626
3.864931407822206e10,3020.6467760500786
3.8751626672120224e10,3022.447991006234
3.8854057469562416e10,3024.248011908814
3.895660667293581e10,3026.0468771940855
3.905927449738743e10,3027.8448150537865
3.9162061167671684e10,3029.6419265155714
3.926496691302911e10,3031.438208276836
3.936799196337473e10,3033.2336570320563
3.947113654930062e10,3035.0282694727744
3.957440090207842e10,3036.8220422875856
3.967778525366187e10,3038.6149721621227
